   0 0 1   12.773        0.000        0.000 -161.57      2  0.00032  0.01529  0.01534   1.0000
  1 0 -1   16.579        0.000        0.000  -63.43      2  0.00032  0.01727  0.01731   1.0000
   1 0 0   16.584      342.558      342.564    0.00      2  0.00032  0.01727  0.01731   1.0000
   0 1 0   18.458        0.000        0.000   94.40      2  0.00032  0.01825  0.01829   1.0000
  0 1 -1   22.510     2016.134     2016.239   -0.00      2  0.00032  0.02040  0.02044   1.0000
   0 1 1   22.510     2016.134     2016.239    0.00      2  0.00032  0.02040  0.02044   1.0000
  1 0 -2   24.639       35.023       34.913  180.00      2  0.00032  0.02155  0.02158   1.0000
   1 0 1   24.649        0.000        0.000   76.37      2  0.00032  0.02155  0.02159   1.0000
  1 1 -1   24.908      453.425      453.719    0.00      2  0.00032  0.02169  0.02173   1.0000
 1 -1 -1   24.908      453.425      453.719    0.00      2  0.00032  0.02169  0.02173   1.0000
   1 1 0   24.912      134.702      134.804    0.00      2  0.00032  0.02169  0.02173   1.0000
  1 -1 0   24.912      134.702      134.804 -180.00      2  0.00032  0.02169  0.02173   1.0000
   0 0 2   25.709     1146.429     1145.893   -0.00      2  0.00032  0.02213  0.02216   1.0000
  2 0 -1   30.862        0.000        0.000 -123.27      2  0.00032  0.02497  0.02500   1.0000
 1 -1 -2   30.961     7050.867     7050.508    0.00      2  0.00032  0.02503  0.02506   1.0000
  1 1 -2   30.961     7050.867     7050.508 -180.00      2  0.00032  0.02503  0.02506   1.0000
   1 1 1   30.970    14026.283    14025.747   -0.00      2  0.00032  0.02503  0.02506   1.0000
  1 -1 1   30.970    14026.283    14025.747    0.00      2  0.00032  0.02503  0.02506   1.0000
  0 1 -2   31.836      379.385      379.701 -180.00      2  0.00032  0.02552  0.02555   1.0000
   0 1 2   31.836      379.385      379.701   -0.00      2  0.00032  0.02552  0.02555   1.0000
  2 0 -2   33.519     5081.481     5080.857  180.00      2  0.00032  0.02647  0.02650   1.0000
   2 0 0   33.529     2183.462     2183.631 -180.00      2  0.00032  0.02648  0.02651   1.0000
  1 0 -3   35.905        0.000        0.000  -45.00      2  0.00032  0.02784  0.02787   1.0000
   1 0 2   35.917      372.962      372.269   -0.00      2  0.00032  0.02785  0.02788   1.0000
  2 1 -1   36.200     2500.445     2501.137  180.00      2  0.00032  0.02801  0.02804   1.0000
 2 -1 -1   36.200     2500.445     2501.137 -180.00      2  0.00032  0.02801  0.02804   1.0000
   0 2 0   37.417     1505.781     1505.677   -0.00      2  0.00032  0.02872  0.02875   1.0000
 2 -1 -2   38.532     1430.214     1429.417  180.00      2  0.00032  0.02938  0.02941   1.0000
  2 1 -2   38.532     1430.214     1429.417    0.00      2  0.00032  0.02938  0.02941   1.0000
   2 1 0   38.541       52.869       52.828    0.00      2  0.00032  0.02938  0.02941   1.0000
  2 -1 0   38.541       52.869       52.828  180.00      2  0.00032  0.02938  0.02941   1.0000
   0 0 3   38.989        0.000        0.000 -139.64      2  0.00032  0.02965  0.02968   1.0000
  0 2 -1   39.693      610.091      610.215  180.00      2  0.00032  0.03006  0.03009   1.0000
   0 2 1   39.693      610.091      610.215    0.00      2  0.00032  0.03006  0.03009   1.0000
  2 0 -3   40.579        0.000        0.000  123.69      2  0.00032  0.03059  0.03062   1.0000
   2 0 1   40.596        0.000        0.000 -142.13      2  0.00032  0.03060  0.03063   1.0000
 1 -1 -3   40.664     4952.994     4951.789 -180.00      2  0.00032  0.03064  0.03067   1.0000
  1 1 -3   40.664     4952.994     4951.789 -180.00      2  0.00032  0.03064  0.03067   1.0000
  1 -1 2   40.675      289.020      289.010   -0.00      2  0.00032  0.03065  0.03068   1.0000
   1 1 2   40.675      289.020      289.010 -180.00      2  0.00032  0.03065  0.03068   1.0000
  1 2 -1   41.179       40.578       40.609 -180.00      2  0.00032  0.03095  0.03098   1.0000
 1 -2 -1   41.179       40.578       40.609    0.00      2  0.00032  0.03095  0.03098   1.0000
   1 2 0   41.181     1450.959     1452.078   -0.00      2  0.00032  0.03095  0.03098   1.0000
  1 -2 0   41.181     1450.959     1452.078    0.00      2  0.00032  0.03095  0.03098   1.0000
   0 1 3   43.462        9.241        9.280   -0.00      2  0.00032  0.03234  0.03237   1.0000
  0 1 -3   43.462        9.241        9.280   -0.00      2  0.00032  0.03234  0.03237   1.0000
 2 -1 -3   44.922     2575.148     2574.757  180.00      2  0.00032  0.03324  0.03326   1.0000
  2 1 -3   44.922     2575.148     2574.757 -180.00      2  0.00032  0.03324  0.03326   1.0000
   2 1 1   44.938        2.536        2.535    0.00      2  0.00032  0.03325  0.03327   1.0000
  2 -1 1   44.938        2.536        2.535   -0.00      2  0.00032  0.03325  0.03327   1.0000
 1 -2 -2   45.317     1952.850     1951.713 -180.00      2  0.00032  0.03348  0.03351   1.0000
  1 2 -2   45.317     1952.850     1951.713 -180.00      2  0.00032  0.03348  0.03351   1.0000
  1 -2 1   45.323      185.751      185.633    0.00      2  0.00032  0.03349  0.03351   1.0000
   1 2 1   45.323      185.751      185.633  180.00      2  0.00032  0.03349  0.03351   1.0000
  0 2 -2   45.954     3811.634     3810.515   -0.00      2  0.00032  0.03388  0.03391   1.0000
   0 2 2   45.954     3811.634     3810.515   -0.00      2  0.00032  0.03388  0.03391   1.0000
  3 0 -2   47.526     1995.671     1996.328 -180.00      2  0.00032  0.03487  0.03490   1.0000
  3 0 -1   47.531        0.000        0.000 -128.66      2  0.00032  0.03487  0.03490   1.0000
  1 0 -4   48.584     5478.638     5474.925 -180.00      2  0.00032  0.03554  0.03557   1.0000
   1 0 3   48.597        0.000        0.000   52.70      2  0.00032  0.03555  0.03558   1.0000
  2 2 -1   49.259     4802.446     4800.974 -180.00      2  0.00032  0.03598  0.03600   1.0000
 2 -2 -1   49.259     4802.446     4800.974    0.00      2  0.00032  0.03598  0.03600   1.0000
  2 0 -4   50.519     9084.637     9084.379 -180.00      2  0.00032  0.03679  0.03682   1.0000
   2 0 2   50.541    12124.070    12123.403   -0.00      2  0.00032  0.03681  0.03683   1.0000
  2 2 -2   51.102     7595.409     7594.369  180.00      2  0.00032  0.03717  0.03720   1.0000
 2 -2 -2   51.102     7595.409     7594.369 -180.00      2  0.00032  0.03717  0.03720   1.0000
   2 2 0   51.109      355.823      355.765   -0.00      2  0.00032  0.03718  0.03720   1.0000
  2 -2 0   51.109      355.823      355.765   -0.00      2  0.00032  0.03718  0.03720   1.0000
  3 0 -3   51.256        0.000        0.000    8.30      2  0.00032  0.03728  0.03730   1.0000
   3 0 0   51.273     3343.525     3343.739  180.00      2  0.00032  0.03729  0.03731   1.0000
 3 -1 -2   51.404      887.941      887.394 -180.00      2  0.00032  0.03737  0.03740   1.0000
  3 1 -2   51.404      887.941      887.394    0.00      2  0.00032  0.03737  0.03740   1.0000
 3 -1 -1   51.410     5968.245     5965.209 -180.00      2  0.00032  0.03738  0.03740   1.0000
  3 1 -1   51.410     5968.245     5965.209  180.00      2  0.00032  0.03738  0.03740   1.0000
 1 -1 -4   52.404       15.018       15.024   -0.00      2  0.00032  0.03803  0.03806   1.0000
  1 1 -4   52.404       15.018       15.024 -180.00      2  0.00032  0.03803  0.03806   1.0000
  1 -1 3   52.417     4092.246     4094.854   -0.00      2  0.00032  0.03804  0.03807   1.0000
   1 1 3   52.417     4092.246     4094.854   -0.00      2  0.00032  0.03804  0.03807   1.0000
 1 -2 -3   52.827      333.377      333.549 -180.00      2  0.00032  0.03831  0.03834   1.0000
  1 2 -3   52.827      333.377      333.549   -0.00      2  0.00032  0.03831  0.03834   1.0000
  1 -2 2   52.836     5597.637     5600.022    0.00      2  0.00032  0.03832  0.03834   1.0000
   1 2 2   52.836     5597.637     5600.022   -0.00      2  0.00032  0.03832  0.03834   1.0000
   0 0 4   52.841     1460.119     1460.683  180.00      2  0.00032  0.03832  0.03835   1.0000
 2 -1 -4   54.241      418.356      418.549    0.00      2  0.00032  0.03926  0.03929   1.0000
  2 1 -4   54.241      418.356      418.549 -180.00      2  0.00032  0.03926  0.03929   1.0000
  2 -1 2   54.262      752.657      752.765    0.00      2  0.00032  0.03928  0.03930   1.0000
   2 1 2   54.262      752.657      752.765 -180.00      2  0.00032  0.03928  0.03930   1.0000
 3 -1 -3   54.942     2884.724     2885.575  180.00      2  0.00032  0.03974  0.03976   1.0000
  3 1 -3   54.942     2884.724     2885.575 -180.00      2  0.00032  0.03974  0.03976   1.0000
  3 -1 0   54.958     3572.761     3572.941    0.00      2  0.00032  0.03975  0.03977   1.0000
   3 1 0   54.958     3572.761     3572.941 -180.00      2  0.00032  0.03975  0.03977   1.0000
   0 2 3   55.145     4790.509     4787.262   -0.00      2  0.00032  0.03988  0.03990   1.0000
  0 2 -3   55.145     4790.509     4787.262  180.00      2  0.00032  0.03988  0.03990   1.0000
 2 -2 -3   56.376        0.046        0.046   -0.00      2  0.00032  0.04072  0.04074   1.0000
  2 2 -3   56.376        0.046        0.046 -180.00      2  0.00032  0.04072  0.04074   1.0000
   2 2 1   56.390     1538.808     1539.493  180.00      2  0.00032  0.04073  0.04075   1.0000
  2 -2 1   56.390     1538.808     1539.493    0.00      2  0.00032  0.04073  0.04075   1.0000
  0 1 -4   56.455     1320.710     1320.410    0.00      2  0.00032  0.04078  0.04080   1.0000
   0 1 4   56.455     1320.710     1320.410  180.00      2  0.00032  0.04078  0.04080   1.0000
   0 3 0   57.519        0.000        0.000   58.95      2  0.00032  0.04151  0.04154   1.0000
  3 0 -4   58.202     3739.275     3745.108    0.00      2  0.00032  0.04199  0.04202   1.0000
   3 0 1   58.228        0.000        0.000   17.10      2  0.00032  0.04201  0.04203   1.0000
  0 3 -1   59.185     3673.107     3676.000   -0.00      2  0.00032  0.04269  0.04271   1.0000
   0 3 1   59.185     3673.107     3676.000   -0.00      2  0.00032  0.04269  0.04271   1.0000
 1 -3 -1   60.301      163.008      162.964   -0.00      2  0.00032  0.04349  0.04351   1.0000
  1 3 -1   60.301      163.008      162.964   -0.00      2  0.00032  0.04349  0.04351   1.0000
  1 -3 0   60.303     5361.125     5359.702    0.00      2  0.00032  0.04349  0.04351   1.0000
   1 3 0   60.303     5361.125     5359.702  180.00      2  0.00032  0.04349  0.04351   1.0000
 3 -1 -4   61.609      260.559      260.438  180.00      2  0.00032  0.04444  0.04446   1.0000
  3 1 -4   61.609      260.559      260.438   -0.00      2  0.00032  0.04444  0.04446   1.0000
  3 -1 1   61.634     1047.007     1047.102  180.00      2  0.00032  0.04446  0.04448   1.0000
   3 1 1   61.634     1047.007     1047.102  180.00      2  0.00032  0.04446  0.04448   1.0000
 3 -2 -2   61.999      583.022      582.132 -180.00      2  0.00032  0.04472  0.04475   1.0000
  3 2 -2   61.999      583.022      582.132  180.00      2  0.00032  0.04472  0.04475   1.0000
 3 -2 -1   62.004      795.228      793.988  180.00      2  0.00032  0.04473  0.04475   1.0000
  3 2 -1   62.004      795.228      793.988   -0.00      2  0.00032  0.04473  0.04475   1.0000
  1 0 -5   62.383        0.000        0.000   87.99      2  0.00032  0.04501  0.04503   1.0000
   1 0 4   62.397     2134.295     2133.867   -0.00      2  0.00032  0.04502  0.04504   1.0000
  2 0 -5   62.443        0.000        0.000   37.29      2  0.00032  0.04505  0.04507   1.0000
   2 0 3   62.469        0.000        0.000  -94.28      2  0.00032  0.04507  0.04509   1.0000
 1 -2 -4   62.886      472.363      472.373 -180.00      2  0.00032  0.04538  0.04540   1.0000
  1 2 -4   62.886      472.363      472.373  180.00      2  0.00032  0.04538  0.04540   1.0000
   1 2 3   62.898        4.486        4.487   -0.00      2  0.00032  0.04539  0.04541   1.0000
  1 -2 3   62.898        4.486        4.487 -180.00      2  0.00032  0.04539  0.04541   1.0000
 1 -3 -2   63.514     1567.763     1567.340   -0.00      2  0.00032  0.04585  0.04587   1.0000
  1 3 -2   63.514     1567.763     1567.340  180.00      2  0.00032  0.04585  0.04587   1.0000
  1 -3 1   63.519       87.063       87.032   -0.00      2  0.00032  0.04585  0.04587   1.0000
   1 3 1   63.519       87.063       87.032    0.00      2  0.00032  0.04585  0.04587   1.0000
  0 3 -2   64.022        5.519        5.547   -0.00      2  0.00032  0.04623  0.04625   1.0000
   0 3 2   64.022        5.519        5.547  180.00      2  0.00032  0.04623  0.04625   1.0000
  4 0 -2   64.303     3215.332     3218.645 -180.00      2  0.00032  0.04644  0.04646   1.0000
 2 -2 -4   64.529      962.683      962.683  180.00      2  0.00032  0.04661  0.04663   1.0000
  2 2 -4   64.529      962.683      962.683  180.00      2  0.00032  0.04661  0.04663   1.0000
   2 2 2   64.548      346.750      346.652   -0.00      2  0.00032  0.04662  0.04665   1.0000
  2 -2 2   64.548      346.750      346.652    0.00      2  0.00032  0.04662  0.04665   1.0000
 3 -2 -3   65.161      160.402      160.318  180.00      2  0.00032  0.04709  0.04711   1.0000
  3 2 -3   65.161      160.402      160.318   -0.00      2  0.00032  0.04709  0.04711   1.0000
   3 2 0   65.175     1891.817     1891.675 -180.00      2  0.00032  0.04710  0.04712   1.0000
  3 -2 0   65.175     1891.817     1891.675 -180.00      2  0.00032  0.04710  0.04712   1.0000
 1 -1 -5   65.662     5334.224     5337.226 -180.00      2  0.00032  0.04747  0.04749   1.0000
  1 1 -5   65.662     5334.224     5337.226 -180.00      2  0.00032  0.04747  0.04749   1.0000
  1 -1 4   65.676     1569.274     1569.675  180.00      2  0.00032  0.04748  0.04751   1.0000
   1 1 4   65.676     1569.274     1569.675   -0.00      2  0.00032  0.04748  0.04751   1.0000
 2 -1 -5   65.720       72.017       71.993   -0.00      2  0.00032  0.04752  0.04754   1.0000
  2 1 -5   65.720       72.017       71.993   -0.00      2  0.00032  0.04752  0.04754   1.0000
  2 -1 3   65.745      813.251      813.614    0.00      2  0.00032  0.04754  0.04756   1.0000
   2 1 3   65.745      813.251      813.614    0.00      2  0.00032  0.04754  0.04756   1.0000
  4 0 -3   65.860        0.000        0.000   42.88      2  0.00032  0.04762  0.04765   1.0000
  4 0 -1   65.872        0.000        0.000 -138.37      2  0.00032  0.04763  0.04766   1.0000
  0 2 -4   66.530     1163.525     1161.702  180.00      2  0.00032  0.04814  0.04816   1.0000
   0 2 4   66.530     1163.525     1161.702  180.00      2  0.00032  0.04814  0.04816   1.0000
 2 -3 -1   66.708     1211.112     1209.181 -180.00      2  0.00032  0.04828  0.04830   1.0000
  2 3 -1   66.708     1211.112     1209.181 -180.00      2  0.00032  0.04828  0.04830   1.0000
 4 -1 -2   67.531       36.193       35.751   -0.00      2  0.00032  0.04892  0.04895   1.0000
  4 1 -2   67.531       36.193       35.751  180.00      2  0.00032  0.04892  0.04895   1.0000
   0 0 5   67.586        0.000        0.000  112.38      2  0.00032  0.04897  0.04899   1.0000
  3 0 -5   67.758        0.000        0.000 -137.17      2  0.00032  0.04910  0.04912   1.0000
   3 0 2   67.791       48.193       48.018  180.00      2  0.00032  0.04913  0.04915   1.0000
 2 -3 -2   68.240       26.649       26.699    0.00      2  0.00032  0.04948  0.04950   1.0000
  2 3 -2   68.240       26.649       26.699 -180.00      2  0.00032  0.04948  0.04950   1.0000
  2 -3 0   68.246      228.782      229.225    0.00      2  0.00032  0.04949  0.04951   1.0000
   2 3 0   68.246      228.782      229.225  180.00      2  0.00032  0.04949  0.04951   1.0000
 4 -1 -3   69.051     1933.781     1933.918    0.00      2  0.00032  0.05013  0.05015   1.0000
  4 1 -3   69.051     1933.781     1933.918   -0.00      2  0.00032  0.05013  0.05015   1.0000
 4 -1 -1   69.064       79.647       79.616 -180.00      2  0.00032  0.05014  0.05016   1.0000
  4 1 -1   69.064       79.647       79.616 -180.00      2  0.00032  0.05014  0.05016   1.0000
 1 -3 -3   69.696     1002.826     1004.209 -180.00      2  0.00032  0.05065  0.05067   1.0000
  1 3 -3   69.696     1002.826     1004.209 -180.00      2  0.00032  0.05065  0.05067   1.0000
  1 -3 2   69.703     1129.133     1130.733 -180.00      2  0.00032  0.05065  0.05068   1.0000
   1 3 2   69.703     1129.133     1130.733   -0.00      2  0.00032  0.05065  0.05068   1.0000
  4 0 -4   70.438     2142.711     2141.200    0.00      2  0.00032  0.05125  0.05127   1.0000
   4 0 0   70.462     1578.218     1577.692  180.00      2  0.00032  0.05127  0.05129   1.0000
  0 1 -5   70.740     1081.417     1080.731 -180.00      2  0.00032  0.05150  0.05152   1.0000
   0 1 5   70.740     1081.417     1080.731  180.00      2  0.00032  0.05150  0.05152   1.0000
 3 -1 -5   70.909      465.685      465.592   -0.00      2  0.00032  0.05164  0.05166   1.0000
  3 1 -5   70.909      465.685      465.592    0.00      2  0.00032  0.05164  0.05166   1.0000
  3 -1 2   70.941       25.651       25.631    0.00      2  0.00032  0.05166  0.05168   1.0000
   3 1 2   70.941       25.651       25.631 -180.00      2  0.00032  0.05166  0.05168   1.0000
 3 -2 -4   71.267      303.318      303.659 -180.00      2  0.00032  0.05193  0.05195   1.0000
  3 2 -4   71.267      303.318      303.659 -180.00      2  0.00032  0.05193  0.05195   1.0000
  3 -2 1   71.290      101.055      100.960  180.00      2  0.00032  0.05195  0.05197   1.0000
   3 2 1   71.290      101.055      100.960   -0.00      2  0.00032  0.05195  0.05197   1.0000
  0 3 -3   71.682      103.183      103.182 -180.00      2  0.00032  0.05227  0.05229   1.0000
   0 3 3   71.682      103.183      103.182  180.00      2  0.00032  0.05227  0.05229   1.0000
 2 -3 -3   72.751     1674.629     1674.540  180.00      2  0.00032  0.05317  0.05319   1.0000
  2 3 -3   72.751     1674.629     1674.540  180.00      2  0.00032  0.05317  0.05319   1.0000
  2 -3 1   72.763      330.820      330.815   -0.00      2  0.00032  0.05318  0.05320   1.0000
   2 3 1   72.763      330.820      330.815   -0.00      2  0.00032  0.05318  0.05320   1.0000
 4 -1 -4   73.538      210.028      210.014 -180.00      2  0.00032  0.05383  0.05385   1.0000
  4 1 -4   73.538      210.028      210.014    0.00      2  0.00032  0.05383  0.05385   1.0000
  4 -1 0   73.562      251.011      250.961 -180.00      2  0.00032  0.05385  0.05387   1.0000
   4 1 0   73.562      251.011      250.961   -0.00      2  0.00032  0.05385  0.05387   1.0000
 1 -2 -5   75.061        1.260        1.255  180.00      2  0.00032  0.05514  0.05516   1.0000
  1 2 -5   75.061        1.260        1.255   -0.00      2  0.00032  0.05514  0.05516   1.0000
  1 -2 4   75.074       74.752       74.554  180.00      2  0.00032  0.05515  0.05518   1.0000
   1 2 4   75.074       74.752       74.554 -180.00      2  0.00032  0.05515  0.05518   1.0000
 2 -2 -5   75.116     1329.344     1328.390 -180.00      2  0.00032  0.05519  0.05521   1.0000
  2 2 -5   75.116     1329.344     1328.390    0.00      2  0.00032  0.05519  0.05521   1.0000
  2 -2 3   75.140        5.176        5.175   -0.00      2  0.00032  0.05521  0.05523   1.0000
   2 2 3   75.140        5.176        5.175  180.00      2  0.00032  0.05521  0.05523   1.0000
  2 0 -6   76.116       93.033       93.276  180.00      2  0.00032  0.05607  0.05609   1.0000
   2 0 4   76.146     3553.782     3561.196   -0.00      2  0.00032  0.05609  0.05611   1.0000
  4 2 -2   76.830      275.939      275.404   -0.00      2  0.00032  0.05670  0.05672   1.0000
 4 -2 -2   76.830      275.939      275.404    0.00      2  0.00032  0.05670  0.05672   1.0000
  1 0 -6   77.519      357.572      357.712   -0.00      2  0.00032  0.05732  0.05734   1.0000
   1 0 5   77.536        0.000        0.000  176.22      2  0.00032  0.05733  0.05735   1.0000
  3 3 -2   77.744       62.507       62.601 -180.00      2  0.00032  0.05752  0.05754   1.0000
 3 -3 -2   77.744       62.507       62.601    0.00      2  0.00032  0.05752  0.05754   1.0000
  3 3 -1   77.748     1482.362     1484.441 -180.00      2  0.00032  0.05753  0.05755   1.0000
 3 -3 -1   77.748     1482.362     1484.441 -180.00      2  0.00032  0.05753  0.05755   1.0000
  4 0 -5   77.808        0.000        0.000  -14.74      2  0.00032  0.05758  0.05760   1.0000
   4 0 1   77.843        0.000        0.000  126.87      2  0.00032  0.05761  0.05763   1.0000
  4 2 -3   78.276     1015.974     1015.282   -0.00      2  0.00032  0.05801  0.05803   1.0000
 4 -2 -3   78.276     1015.974     1015.282 -180.00      2  0.00032  0.05801  0.05803   1.0000
  4 2 -1   78.288      437.809      437.605   -0.00      2  0.00032  0.05802  0.05804   1.0000
 4 -2 -1   78.288      437.809      437.605 -180.00      2  0.00032  0.05802  0.05804   1.0000
 1 -3 -4   78.548      510.110      510.130    0.00      2  0.00032  0.05825  0.05827   1.0000
  1 3 -4   78.548      510.110      510.130 -180.00      2  0.00032  0.05825  0.05827   1.0000
  1 -3 3   78.558      665.798      665.894    0.00      2  0.00032  0.05826  0.05828   1.0000
   1 3 3   78.558      665.798      665.894    0.00      2  0.00032  0.05826  0.05828   1.0000
 2 -1 -6   79.134      425.517      426.291 -180.00      2  0.00032  0.05879  0.05881   1.0000
  2 1 -6   79.134      425.517      426.291    0.00      2  0.00032  0.05879  0.05881   1.0000
  2 -1 4   79.163      244.588      245.053 -180.00      2  0.00032  0.05882  0.05884   1.0000
   2 1 4   79.163      244.588      245.053    0.00      2  0.00032  0.05882  0.05884   1.0000
  3 0 -6   79.595      273.532      274.567   -0.00      2  0.00032  0.05922  0.05924   1.0000
   3 0 3   79.635        0.000        0.000   17.82      2  0.00032  0.05926  0.05928   1.0000
   0 4 0   79.809      450.957      450.608   -0.00      2  0.00032  0.05942  0.05944   1.0000
  0 2 -5   79.891      719.984      718.076 -180.00      2  0.00032  0.05950  0.05952   1.0000
   0 2 5   79.891      719.984      718.076   -0.00      2  0.00032  0.05950  0.05952   1.0000
 2 -3 -4   80.047     1778.012     1778.349 -180.00      2  0.00032  0.05964  0.05966   1.0000
  2 3 -4   80.047     1778.012     1778.349   -0.00      2  0.00032  0.05964  0.05966   1.0000
 3 -2 -5   80.053       10.823       10.827 -180.00      2  0.00032  0.05965  0.05967   1.0000
  3 2 -5   80.053       10.823       10.827    0.00      2  0.00032  0.05965  0.05967   1.0000
  2 -3 2   80.064       11.976       11.983   -0.00      2  0.00032  0.05966  0.05968   1.0000
   2 3 2   80.064       11.976       11.983  180.00      2  0.00032  0.05966  0.05968   1.0000
  3 -2 2   80.084      483.495      483.754 -180.00      2  0.00032  0.05968  0.05970   1.0000
   3 2 2   80.084      483.495      483.754 -180.00      2  0.00032  0.05968  0.05970   1.0000
 1 -1 -6   80.522      608.823      608.431  180.00      2  0.00032  0.06009  0.06011   1.0000
  1 1 -6   80.522      608.823      608.431    0.00      2  0.00032  0.06009  0.06011   1.0000
  1 -1 5   80.538      170.114      170.141  180.00      2  0.00032  0.06011  0.06012   1.0000
   1 1 5   80.538      170.114      170.141  180.00      2  0.00032  0.06011  0.06012   1.0000
  3 3 -3   80.627       70.284       70.093   -0.00      2  0.00032  0.06019  0.06021   1.0000
 3 -3 -3   80.627       70.284       70.093    0.00      2  0.00032  0.06019  0.06021   1.0000
  3 -3 0   80.640      123.382      123.058    0.00      2  0.00032  0.06020  0.06022   1.0000
   3 3 0   80.640      123.382      123.058 -180.00      2  0.00032  0.06020  0.06022   1.0000
 4 -1 -5   80.808     1422.857     1422.761    0.00      2  0.00032  0.06036  0.06038   1.0000
  4 1 -5   80.808     1422.857     1422.761    0.00      2  0.00032  0.06036  0.06038   1.0000
  4 -1 1   80.843     1691.377     1690.831  180.00      2  0.00032  0.06039  0.06041   1.0000
   4 1 1   80.843     1691.377     1690.831  180.00      2  0.00032  0.06039  0.06041   1.0000
  0 4 -1   81.247     1400.145     1399.064  180.00      2  0.00032  0.06078  0.06080   1.0000
   0 4 1   81.247     1400.145     1399.064   -0.00      2  0.00032  0.06078  0.06080   1.0000
   0 3 4   81.891      836.832      836.864   -0.00      2  0.00032  0.06140  0.06142   1.0000
  0 3 -4   81.891      836.832      836.864 -180.00      2  0.00032  0.06140  0.06142   1.0000
 1 -4 -1   82.221      771.763      771.745    0.00      2  0.00032  0.06172  0.06174   1.0000
  1 4 -1   82.221      771.763      771.745  180.00      2  0.00032  0.06172  0.06174   1.0000
  1 -4 0   82.223     1351.487     1351.411    0.00      2  0.00032  0.06172  0.06174   1.0000
   1 4 0   82.223     1351.487     1351.411   -0.00      2  0.00032  0.06172  0.06174   1.0000
 3 -1 -6   82.579      203.729      203.672 -180.00      2  0.00032  0.06206  0.06208   1.0000
  3 1 -6   82.579      203.729      203.672   -0.00      2  0.00032  0.06206  0.06208   1.0000
 4 -2 -4   82.585      589.213      589.059   -0.00      2  0.00032  0.06207  0.06209   1.0000
  4 2 -4   82.585      589.213      589.059   -0.00      2  0.00032  0.06207  0.06209   1.0000
   4 2 0   82.608     3783.060     3781.713  180.00      2  0.00032  0.06209  0.06211   1.0000
  4 -2 0   82.608     3783.060     3781.713 -180.00      2  0.00032  0.06209  0.06211   1.0000
  3 -1 3   82.618     1493.606     1492.958   -0.00      2  0.00032  0.06210  0.06212   1.0000
   3 1 3   82.618     1493.606     1492.958   -0.00      2  0.00032  0.06210  0.06212   1.0000
   0 0 6   83.738     3718.346     3720.454  180.00      2  0.00032  0.06321  0.06323   1.0000
  5 0 -3   83.748        0.000        0.000  108.66      2  0.00032  0.06322  0.06323   1.0000
  5 0 -2   83.755     4047.043     4049.764    0.00      2  0.00032  0.06322  0.06324   1.0000
 1 -4 -2   85.073        1.805        1.801   -0.00      2  0.00032  0.06455  0.06457   1.0000
  1 4 -2   85.073        1.805        1.801    0.00      2  0.00032  0.06455  0.06457   1.0000
  1 -4 1   85.078       60.868       60.696    0.00      2  0.00032  0.06455  0.06457   1.0000
   1 4 1   85.078       60.868       60.696  180.00      2  0.00032  0.06455  0.06457   1.0000
  0 4 -2   85.530      258.319      257.551 -180.00      2  0.00032  0.06501  0.06503   1.0000
   0 4 2   85.530      258.319      257.551  180.00      2  0.00032  0.06501  0.06503   1.0000
 3 -3 -4   86.334     2330.563     2334.124 -180.00      2  0.00032  0.06584  0.06586   1.0000
  3 3 -4   86.334     2330.563     2334.124    0.00      2  0.00032  0.06584  0.06586   1.0000
  3 -3 1   86.356      135.017      135.144 -180.00      2  0.00032  0.06587  0.06589   1.0000
   3 3 1   86.356      135.017      135.144 -180.00      2  0.00032  0.06587  0.06589   1.0000
  5 0 -4   86.587      146.114      145.571    0.00      2  0.00032  0.06611  0.06613   1.0000
  5 0 -1   86.609        0.000        0.000  -64.61      2  0.00032  0.06613  0.06615   1.0000
  0 1 -6   86.696      406.915      406.756 -180.00      2  0.00032  0.06622  0.06624   1.0000
   0 1 6   86.696      406.915      406.756   -0.00      2  0.00032  0.06622  0.06624   1.0000
 5 -1 -3   86.706     1578.223     1577.156    0.00      2  0.00032  0.06623  0.06625   1.0000
  5 1 -3   86.706     1578.223     1577.156    0.00      2  0.00032  0.06623  0.06625   1.0000
 5 -1 -2   86.713        3.944        3.940    0.00      2  0.00032  0.06624  0.06626   1.0000
  5 1 -2   86.713        3.944        3.940 -180.00      2  0.00032  0.06624  0.06626   1.0000
  4 0 -6   87.819     3477.148     3479.612    0.00      2  0.00032  0.06741  0.06743   1.0000
   4 0 2   87.865     2435.405     2436.369  180.00      2  0.00032  0.06746  0.06748   1.0000
  2 4 -1   87.975      259.857      260.229  180.00      2  0.00032  0.06757  0.06759   1.0000
 2 -4 -1   87.975      259.857      260.229    0.00      2  0.00032  0.06757  0.06759   1.0000
 2 -2 -6   88.041      214.062      214.083    0.00      2  0.00032  0.06764  0.06766   1.0000
  2 2 -6   88.041      214.062      214.083    0.00      2  0.00032  0.06764  0.06766   1.0000
  2 -2 4   88.070     1879.000     1879.996    0.00      2  0.00032  0.06767  0.06769   1.0000
   2 2 4   88.070     1879.000     1879.996    0.00      2  0.00032  0.06767  0.06769   1.0000
  2 4 -2   89.391       39.356       39.393   -0.00      2  0.00032  0.06911  0.06913   1.0000
 2 -4 -2   89.391       39.356       39.393    0.00      2  0.00032  0.06911  0.06913   1.0000
   2 4 0   89.397     1066.918     1067.917  180.00      2  0.00032  0.06911  0.06913   1.0000
  2 -4 0   89.397     1066.918     1067.917 -180.00      2  0.00032  0.06911  0.06913   1.0000
 1 -2 -6   89.407     1723.094     1724.634  180.00      2  0.00032  0.06912  0.06914   1.0000
  1 2 -6   89.407     1723.094     1724.634 -180.00      2  0.00032  0.06912  0.06914   1.0000
  1 -2 5   89.423      122.000      122.112    0.00      2  0.00032  0.06914  0.06916   1.0000
   1 2 5   89.423      122.000      122.112  180.00      2  0.00032  0.06914  0.06916   1.0000
 5 -1 -4   89.536      446.961      447.795 -180.00      2  0.00032  0.06927  0.06929   1.0000
  5 1 -4   89.536      446.961      447.795    0.00      2  0.00032  0.06927  0.06929   1.0000
 5 -1 -1   89.558       53.724       53.800  180.00      2  0.00032  0.06929  0.06931   1.0000
  5 1 -1   89.558       53.724       53.800  180.00      2  0.00032  0.06929  0.06931   1.0000
 4 -2 -5   89.689      604.512      605.585 -180.00      2  0.00032  0.06943  0.06945   1.0000
  4 2 -5   89.689      604.512      605.585    0.00      2  0.00032  0.06943  0.06945   1.0000
   4 2 1   89.724      944.222      945.771  180.00      2  0.00032  0.06947  0.06949   1.0000
  4 -2 1   89.724      944.222      945.771   -0.00      2  0.00032  0.06947  0.06949   1.0000
 1 -3 -5   89.966      227.163      227.143 -180.00      2  0.00032  0.06974  0.06976   1.0000
  1 3 -5   89.966      227.163      227.143 -180.00      2  0.00032  0.06974  0.06976   1.0000
   1 3 4   89.979     1565.941     1565.572    0.00      2  0.00032  0.06976  0.06977   1.0000
  1 -3 4   89.979     1565.941     1565.572 -180.00      2  0.00032  0.06976  0.06977   1.0000
 2 -3 -5   90.020     1023.554     1023.003 -180.00      2  0.00032  0.06980  0.06982   1.0000
  2 3 -5   90.020     1023.554     1023.003  180.00      2  0.00032  0.06980  0.06982   1.0000
  2 -3 3   90.043     2806.514     2805.769   -0.00      2  0.00032  0.06983  0.06984   1.0000
   2 3 3   90.043     2806.514     2805.769   -0.00      2  0.00032  0.06983  0.06984   1.0000
 1 -4 -3   90.750      812.421      812.433    0.00      2  0.00032  0.07062  0.07063   1.0000
  1 4 -3   90.750      812.421      812.433  180.00      2  0.00032  0.07062  0.07063   1.0000
  1 -4 2   90.757     1068.527     1068.798    0.00      2  0.00032  0.07062  0.07064   1.0000
   1 4 2   90.757     1068.527     1068.798   -0.00      2  0.00032  0.07062  0.07064   1.0000
 4 -1 -6   90.767     1558.710     1559.510    0.00      2  0.00032  0.07063  0.07065   1.0000
  4 1 -6   90.767     1558.710     1559.510 -180.00      2  0.00032  0.07063  0.07065   1.0000
  4 -1 2   90.813      658.431      658.687  180.00      2  0.00032  0.07069  0.07071   1.0000
   4 1 2   90.813      658.431      658.687    0.00      2  0.00032  0.07069  0.07071   1.0000
 3 -2 -6   91.442     2905.367     2907.381    0.00      2  0.00032  0.07140  0.07142   1.0000
  3 2 -6   91.442     2905.367     2907.381    0.00      2  0.00032  0.07140  0.07142   1.0000
  3 -2 3   91.481      310.037      310.206   -0.00      2  0.00032  0.07144  0.07146   1.0000
   3 2 3   91.481      310.037      310.206  180.00      2  0.00032  0.07144  0.07146   1.0000
 4 -3 -2   91.683     1113.767     1114.429 -180.00      2  0.00032  0.07167  0.07169   1.0000
  4 3 -2   91.683     1113.767     1114.429    0.00      2  0.00032  0.07167  0.07169   1.0000
  2 0 -7   91.847        0.000        0.000  -82.13      2  0.00032  0.07186  0.07188   1.0000
   2 0 5   91.881        0.000        0.000 -118.37      2  0.00032  0.07190  0.07192   1.0000
  5 0 -5   92.254        0.000        0.000  171.87      2  0.00032  0.07233  0.07235   1.0000
   5 0 0   92.290      333.996      332.273    0.00      2  0.00032  0.07237  0.07239   1.0000
  0 4 -3   92.626      910.857      909.139  180.00      2  0.00032  0.07276  0.07278   1.0000
   0 4 3   92.626      910.857      909.139   -0.00      2  0.00032  0.07276  0.07278   1.0000
 4 -3 -3   93.096       23.595       23.570 -180.00      2  0.00032  0.07331  0.07333   1.0000
  4 3 -3   93.096       23.595       23.570  180.00      2  0.00032  0.07331  0.07333   1.0000
 4 -3 -1   93.108      690.957      690.126  180.00      2  0.00032  0.07333  0.07334   1.0000
  4 3 -1   93.108      690.957      690.126  180.00      2  0.00032  0.07333  0.07334   1.0000
 2 -4 -3   93.644       10.702       10.706   -0.00      2  0.00032  0.07396  0.07398   1.0000
  2 4 -3   93.644       10.702       10.706 -180.00      2  0.00032  0.07396  0.07398   1.0000
   2 4 1   93.656     2357.549     2359.229  180.00      2  0.00032  0.07397  0.07399   1.0000
  2 -4 1   93.656     2357.549     2359.229   -0.00      2  0.00032  0.07397  0.07399   1.0000
  3 0 -7   93.830        0.000        0.000  141.12      2  0.00032  0.07418  0.07420   1.0000
   3 0 4   93.878      161.941      161.308 -180.00      2  0.00032  0.07424  0.07426   1.0000
  1 0 -7   94.637        0.000        0.000 -173.09      2  0.00032  0.07515  0.07517   1.0000
   1 0 6   94.656      825.430      825.661 -180.00      2  0.00032  0.07517  0.07519   1.0000
   0 3 5   94.685      605.282      605.482  180.00      2  0.00032  0.07521  0.07523   1.0000
  0 3 -5   94.685      605.282      605.482 -180.00      2  0.00032  0.07521  0.07523   1.0000
 2 -1 -7   94.799      564.253      564.228   -0.00      2  0.00032  0.07535  0.07537   1.0000
  2 1 -7   94.799      564.253      564.228   -0.00      2  0.00032  0.07535  0.07537   1.0000
  2 -1 5   94.834      658.436      658.438   -0.00      2  0.00032  0.07539  0.07541   1.0000
   2 1 5   94.834      658.436      658.438   -0.00      2  0.00032  0.07539  0.07541   1.0000
 3 -3 -5   94.846      491.494      491.540    0.00      2  0.00032  0.07540  0.07542   1.0000
  3 3 -5   94.846      491.494      491.540    0.00      2  0.00032  0.07540  0.07542   1.0000
  3 -3 2   94.876     2950.351     2950.523    0.00      2  0.00032  0.07544  0.07546   1.0000
   3 3 2   94.876     2950.351     2950.523  180.00      2  0.00032  0.07544  0.07546   1.0000
 5 -1 -5   95.208     1288.484     1290.382    0.00      2  0.00032  0.07585  0.07586   1.0000
  5 1 -5   95.208     1288.484     1290.382    0.00      2  0.00032  0.07585  0.07586   1.0000
  5 -1 0   95.244      841.606      842.304 -180.00      2  0.00032  0.07589  0.07591   1.0000
   5 1 0   95.244      841.606      842.304    0.00      2  0.00032  0.07589  0.07591   1.0000
   0 2 6   95.549     1961.020     1962.849  180.00      2  0.00032  0.07627  0.07628   1.0000
  0 2 -6   95.549     1961.020     1962.849 -180.00      2  0.00032  0.07627  0.07628   1.0000
 5 -2 -3   95.559      164.919      165.030   -0.00      2  0.00032  0.07628  0.07630   1.0000
  5 2 -3   95.559      164.919      165.030  180.00      2  0.00032  0.07628  0.07630   1.0000
 5 -2 -2   95.566      290.779      290.925    0.00      2  0.00032  0.07629  0.07630   1.0000
  5 2 -2   95.566      290.779      290.925    0.00      2  0.00032  0.07629  0.07630   1.0000
 3 -1 -7   96.791     2319.377     2320.278    0.00      2  0.00032  0.07782  0.07783   1.0000
  3 1 -7   96.791     2319.377     2320.278   -0.00      2  0.00032  0.07782  0.07783   1.0000
  3 -1 4   96.839       49.064       49.043    0.00      2  0.00032  0.07788  0.07790   1.0000
   3 1 4   96.839       49.064       49.043  180.00      2  0.00032  0.07788  0.07790   1.0000
 4 -3 -4   97.363      472.641      471.478   -0.00      2  0.00032  0.07854  0.07856   1.0000
  4 3 -4   97.363      472.641      471.478  180.00      2  0.00032  0.07854  0.07856   1.0000
   4 3 0   97.386      685.605      683.504   -0.00      2  0.00032  0.07857  0.07859   1.0000
  4 -3 0   97.386      685.605      683.504  180.00      2  0.00032  0.07857  0.07859   1.0000
 1 -1 -7   97.602      291.625      291.601 -180.00      2  0.00032  0.07885  0.07887   1.0000
  1 1 -7   97.602      291.625      291.601  180.00      2  0.00032  0.07885  0.07887   1.0000
  1 -1 6   97.621      642.899      642.705  180.00      2  0.00032  0.07887  0.07889   1.0000
   1 1 6   97.621      642.899      642.705   -0.00      2  0.00032  0.07887  0.07889   1.0000
 5 -2 -4   98.409     2485.296     2486.306    0.00      2  0.00032  0.07990  0.07992   1.0000
  5 2 -4   98.409     2485.296     2486.306    0.00      2  0.00032  0.07990  0.07992   1.0000
 5 -2 -1   98.431       62.730       62.760 -180.00      2  0.00032  0.07993  0.07994   1.0000
  5 2 -1   98.431       62.730       62.760   -0.00      2  0.00032  0.07993  0.07994   1.0000
 3 -4 -2   98.500     2169.246     2169.058  180.00      2  0.00032  0.08002  0.08004   1.0000
  3 4 -2   98.500     2169.246     2169.058  180.00      2  0.00032  0.08002  0.08004   1.0000
 3 -4 -1   98.505       11.159       11.158  180.00      2  0.00032  0.08002  0.08004   1.0000
  3 4 -1   98.505       11.159       11.158   -0.00      2  0.00032  0.08002  0.08004   1.0000
 1 -4 -4   99.297     3037.469     3038.756 -180.00      2  0.00032  0.08107  0.08109   1.0000
  1 4 -4   99.297     3037.469     3038.756  180.00      2  0.00032  0.08107  0.08109   1.0000
   1 4 3   99.307       12.663       12.666    0.00      2  0.00032  0.08108  0.08110   1.0000
  1 -4 3   99.307       12.663       12.666 -180.00      2  0.00032  0.08108  0.08110   1.0000
 4 -2 -6   99.655      629.776      630.456   -0.00      2  0.00032  0.08155  0.08157   1.0000
  4 2 -6   99.655      629.776      630.456    0.00      2  0.00032  0.08155  0.08157   1.0000
   4 2 2   99.702      138.284      138.405  180.00      2  0.00032  0.08161  0.08163   1.0000
  4 -2 2   99.702      138.284      138.405  180.00      2  0.00032  0.08161  0.08163   1.0000
  4 0 -7  100.637        0.000        0.000  -22.83      2  0.00032  0.08288  0.08290   1.0000
   4 0 3  100.695        0.000        0.000  -34.33      2  0.00032  0.08296  0.08298   1.0000
 2 -4 -4  100.793        0.901        0.897   -0.00      2  0.00032  0.08310  0.08311   1.0000
  2 4 -4  100.793        0.901        0.897   -0.00      2  0.00032  0.08310  0.08311   1.0000
  2 -4 2  100.810       49.128       48.869    0.00      2  0.00032  0.08312  0.08314   1.0000
   2 4 2  100.810       49.128       48.869   -0.00      2  0.00032  0.08312  0.08314   1.0000
  5 0 -6  100.818       49.672       49.395    0.00      2  0.00032  0.08313  0.08315   1.0000
   5 0 1  100.870        0.000        0.000  -74.05      2  0.00032  0.08320  0.08322   1.0000
 3 -4 -3  101.375     1407.895     1405.327 -180.00      2  0.00032  0.08390  0.08392   1.0000
  3 4 -3  101.375     1407.895     1405.327   -0.00      2  0.00032  0.08390  0.08392   1.0000
  3 -4 0  101.389      584.440      583.435 -180.00      2  0.00032  0.08392  0.08394   1.0000
   3 4 0  101.389      584.440      583.435 -180.00      2  0.00032  0.08392  0.08394   1.0000
   0 0 7  102.278        0.000        0.000  -91.05      2  0.00032  0.08517  0.08519   1.0000
  0 4 -4  102.653       10.578       10.556   -0.00      2  0.00032  0.08571  0.08573   1.0000
   0 4 4  102.653       10.578       10.556   -0.00      2  0.00032  0.08571  0.08573   1.0000
 2 -3 -6  102.887       92.690       92.699   -0.00      2  0.00032  0.08605  0.08606   1.0000
  2 3 -6  102.887       92.690       92.699  180.00      2  0.00032  0.08605  0.08606   1.0000
  2 -3 4  102.916      573.203      573.524   -0.00      2  0.00032  0.08609  0.08611   1.0000
   2 3 4  102.916      573.203      573.524  180.00      2  0.00032  0.08609  0.08611   1.0000
 4 -1 -7  103.652       46.585       46.565   -0.00      2  0.00032  0.08716  0.08718   1.0000
  4 1 -7  103.652       46.585       46.565    0.00      2  0.00032  0.08716  0.08718   1.0000
  4 -1 3  103.711      518.388      517.378  180.00      2  0.00032  0.08725  0.08726   1.0000
   4 1 3  103.711      518.388      517.378 -180.00      2  0.00032  0.08725  0.08726   1.0000
 2 -2 -7  103.768      832.875      830.935  180.00      2  0.00032  0.08733  0.08735   1.0000
  2 2 -7  103.768      832.875      830.935    0.00      2  0.00032  0.08733  0.08735   1.0000
  2 -2 5  103.804     1014.121     1012.434 -180.00      2  0.00032  0.08738  0.08740   1.0000
   2 2 5  103.804     1014.121     1012.434   -0.00      2  0.00032  0.08738  0.08740   1.0000
 5 -1 -6  103.836        0.881        0.880 -180.00      2  0.00032  0.08743  0.08745   1.0000
  5 1 -6  103.836        0.881        0.880   -0.00      2  0.00032  0.08743  0.08745   1.0000
  5 -1 1  103.888      992.331      992.185 -180.00      2  0.00032  0.08751  0.08752   1.0000
   5 1 1  103.888      992.331      992.185 -180.00      2  0.00032  0.08751  0.08752   1.0000
 5 -2 -5  104.188     1222.081     1222.383    0.00      2  0.00032  0.08795  0.08797   1.0000
  5 2 -5  104.188     1222.081     1222.383 -180.00      2  0.00032  0.08795  0.08797   1.0000
  5 -2 0  104.225       31.768       31.811 -180.00      2  0.00032  0.08801  0.08802   1.0000
   5 2 0  104.225       31.768       31.811 -180.00      2  0.00032  0.08801  0.08802   1.0000
 1 -3 -6  104.292      401.503      402.385  180.00      2  0.00032  0.08811  0.08812   1.0000
  1 3 -6  104.292      401.503      402.385    0.00      2  0.00032  0.08811  0.08812   1.0000
  1 -3 5  104.309        0.621        0.622    0.00      2  0.00032  0.08813  0.08815   1.0000
   1 3 5  104.309        0.621        0.622   -0.00      2  0.00032  0.08813  0.08815   1.0000
 4 -3 -5  104.584     1477.537     1476.487    0.00      2  0.00032  0.08854  0.08856   1.0000
  4 3 -5  104.584     1477.537     1476.487    0.00      2  0.00032  0.08854  0.08856   1.0000
  4 -3 1  104.619      655.903      654.717  180.00      2  0.00032  0.08859  0.08861   1.0000
   4 3 1  104.619      655.903      654.717  180.00      2  0.00032  0.08859  0.08861   1.0000
  0 1 -7  105.313      137.220      136.909 -180.00      2  0.00032  0.08964  0.08966   1.0000
   0 1 7  105.313      137.220      136.909  180.00      2  0.00032  0.08964  0.08966   1.0000
 3 -2 -7  105.817      623.320      622.900   -0.00      2  0.00032  0.09042  0.09044   1.0000
  3 2 -7  105.817      623.320      622.900 -180.00      2  0.00032  0.09042  0.09044   1.0000
  3 -2 4  105.867     1746.999     1745.112   -0.00      2  0.00032  0.09049  0.09051   1.0000
   3 2 4  105.867     1746.999     1745.112   -0.00      2  0.00032  0.09049  0.09051   1.0000
  6 0 -3  105.924        0.000        0.000   21.64      2  0.00032  0.09058  0.09060   1.0000
 3 -3 -6  106.402      994.675      991.719  180.00      2  0.00032  0.09133  0.09134   1.0000
  3 3 -6  106.402      994.675      991.719   -0.00      2  0.00032  0.09133  0.09134   1.0000
   3 3 3  106.443       38.351       38.238 -180.00      2  0.00032  0.09139  0.09141   1.0000
  3 -3 3  106.443       38.351       38.238 -180.00      2  0.00032  0.09139  0.09141   1.0000
   0 5 0  106.622        0.000        0.000  164.74      2  0.00032  0.09167  0.09169   1.0000
 1 -2 -7  106.655       22.597       22.514  180.00      2  0.00032  0.09172  0.09174   1.0000
  1 2 -7  106.655       22.597       22.514    0.00      2  0.00032  0.09172  0.09174   1.0000
  1 -2 6  106.675        1.286        1.281   -0.00      2  0.00032  0.09176  0.09177   1.0000
   1 2 6  106.675        1.286        1.281   -0.00      2  0.00032  0.09176  0.09177   1.0000
 3 -4 -4  107.227        0.569        0.568    0.00      2  0.00032  0.09263  0.09265   1.0000
  3 4 -4  107.227        0.569        0.568    0.00      2  0.00032  0.09263  0.09265   1.0000
  3 -4 1  107.249      552.746      552.176    0.00      2  0.00032  0.09267  0.09268   1.0000
   3 4 1  107.249      552.746      552.176  180.00      2  0.00032  0.09267  0.09268   1.0000
  6 0 -4  107.395      320.986      321.142   -0.00      2  0.00032  0.09290  0.09292   1.0000
  6 0 -2  107.413     2348.030     2349.930    0.00      2  0.00032  0.09293  0.09295   1.0000
  0 5 -1  108.108      437.092      437.798   -0.00      2  0.00032  0.09405  0.09407   1.0000
   0 5 1  108.108      437.092      437.798   -0.00      2  0.00032  0.09405  0.09407   1.0000
 6 -1 -3  109.014      274.027      273.247    0.00      2  0.00032  0.09555  0.09557   1.0000
  6 1 -3  109.014      274.027      273.247    0.00      2  0.00032  0.09555  0.09557   1.0000
 1 -5 -1  109.125      456.345      454.810  180.00      2  0.00032  0.09573  0.09575   1.0000
  1 5 -1  109.125      456.345      454.810  180.00      2  0.00032  0.09573  0.09575   1.0000
  1 -5 0  109.127       35.152       35.033   -0.00      2  0.00032  0.09574  0.09575   1.0000
   1 5 0  109.127       35.152       35.033  180.00      2  0.00032  0.09574  0.09575   1.0000
 6 -1 -4  110.512     1185.856     1188.940    0.00      2  0.00032  0.09810  0.09811   1.0000
  6 1 -4  110.512     1185.856     1188.940 -180.00      2  0.00032  0.09810  0.09811   1.0000
 6 -1 -2  110.530       27.491       27.562   -0.00      2  0.00032  0.09813  0.09815   1.0000
  6 1 -2  110.530       27.491       27.562  180.00      2  0.00032  0.09813  0.09815   1.0000
  2 0 -8  110.726     3269.295     3268.078    0.00      2  0.00032  0.09847  0.09849   1.0000
  0 3 -6  110.727      357.054      356.922    0.00      2  0.00032  0.09847  0.09849   1.0000
   0 3 6  110.727      357.054      356.922 -180.00      2  0.00032  0.09847  0.09849   1.0000
 5 -3 -3  110.737      410.252      410.126    0.00      2  0.00032  0.09849  0.09851   1.0000
  5 3 -3  110.737      410.252      410.126    0.00      2  0.00032  0.09849  0.09851   1.0000
 5 -3 -2  110.745     1728.866     1728.465 -180.00      2  0.00032  0.09850  0.09852   1.0000
  5 3 -2  110.745     1728.866     1728.465    0.00      2  0.00032  0.09850  0.09852   1.0000
   2 0 6  110.769       23.474       23.478  180.00      2  0.00032  0.09854  0.09856   1.0000
 1 -4 -5  111.070      535.879      536.356 -180.00      2  0.00032  0.09907  0.09909   1.0000
  1 4 -5  111.070      535.879      536.356    0.00      2  0.00032  0.09907  0.09909   1.0000
  1 -4 4  111.084      627.467      628.167    0.00      2  0.00032  0.09910  0.09911   1.0000
   1 4 4  111.084      627.467      628.167   -0.00      2  0.00032  0.09910  0.09911   1.0000
 2 -4 -5  111.127      815.235      816.631 -180.00      2  0.00032  0.09917  0.09919   1.0000
  2 4 -5  111.127      815.235      816.631    0.00      2  0.00032  0.09917  0.09919   1.0000
  2 -4 3  111.152        3.016        3.023 -180.00      2  0.00032  0.09922  0.09923   1.0000
   2 4 3  111.152        3.016        3.023    0.00      2  0.00032  0.09922  0.09923   1.0000
  3 0 -8  111.328      437.761      438.296    0.00      2  0.00032  0.09953  0.09954   1.0000
   3 0 5  111.388        0.000        0.000  -99.37      2  0.00032  0.09963  0.09965   1.0000
  6 0 -5  111.904        0.000        0.000 -178.73      2  0.00032  0.10056  0.10057   1.0000
  6 0 -1  111.941        0.000        0.000   14.04      2  0.00032  0.10062  0.10064   1.0000
 1 -5 -2  112.154      857.630      857.406    0.00      2  0.00032  0.10101  0.10102   1.0000
  1 5 -2  112.154      857.630      857.406  180.00      2  0.00032  0.10101  0.10102   1.0000
  1 -5 1  112.159       50.732       50.721   -0.00      2  0.00032  0.10102  0.10103   1.0000
   1 5 1  112.159       50.732       50.721    0.00      2  0.00032  0.10102  0.10103   1.0000
  0 5 -2  112.647     1768.880     1769.252 -180.00      2  0.00032  0.10191  0.10192   1.0000
   0 5 2  112.647     1768.880     1769.252   -0.00      2  0.00032  0.10191  0.10192   1.0000
  5 0 -7  112.678        0.000        0.000 -163.45      2  0.00032  0.10196  0.10198   1.0000
   5 0 2  112.749     1311.336     1311.881 -180.00      2  0.00032  0.10209  0.10211   1.0000
  4 4 -2  112.921       24.506       24.494   -0.00      2  0.00032  0.10241  0.10243   1.0000
 4 -4 -2  112.921       24.506       24.494   -0.00      2  0.00032  0.10241  0.10243   1.0000
 4 -2 -7  112.976        1.631        1.629   -0.00      2  0.00032  0.10251  0.10253   1.0000
  4 2 -7  112.976        1.631        1.629 -180.00      2  0.00032  0.10251  0.10253   1.0000
  4 -2 3  113.039      640.590      638.952   -0.00      2  0.00032  0.10263  0.10264   1.0000
   4 2 3  113.039      640.590      638.952  180.00      2  0.00032  0.10263  0.10264   1.0000
 5 -2 -6  113.170      228.123      227.669 -180.00      2  0.00032  0.10287  0.10289   1.0000
  5 2 -6  113.170      228.123      227.669  180.00      2  0.00032  0.10287  0.10289   1.0000
  5 -2 1  113.225      430.758      430.675 -180.00      2  0.00032  0.10297  0.10299   1.0000
   5 2 1  113.225      430.758      430.675    0.00      2  0.00032  0.10297  0.10299   1.0000
 5 -3 -4  113.794        2.930        2.924 -180.00      2  0.00032  0.10404  0.10406   1.0000
  5 3 -4  113.794        2.930        2.924   -0.00      2  0.00032  0.10404  0.10406   1.0000
 5 -3 -1  113.817      791.470      790.062    0.00      2  0.00032  0.10409  0.10410   1.0000
  5 3 -1  113.817      791.470      790.062    0.00      2  0.00032  0.10409  0.10410   1.0000
 2 -1 -8  113.912      432.180      431.754    0.00      2  0.00032  0.10427  0.10428   1.0000
  2 1 -8  113.912      432.180      431.754  180.00      2  0.00032  0.10427  0.10428   1.0000
  2 -1 6  113.957      532.579      531.762   -0.00      2  0.00032  0.10435  0.10437   1.0000
   2 1 6  113.957      532.579      531.762  180.00      2  0.00032  0.10435  0.10437   1.0000
  4 4 -3  114.463     1170.111     1171.513   -0.00      2  0.00032  0.10532  0.10534   1.0000
 4 -4 -3  114.463     1170.111     1171.513 -180.00      2  0.00032  0.10532  0.10534   1.0000
  4 4 -1  114.476       79.789       79.887    0.00      2  0.00032  0.10535  0.10536   1.0000
 4 -4 -1  114.476       79.789       79.887  180.00      2  0.00032  0.10535  0.10536   1.0000
 3 -1 -8  114.529      297.121      297.522 -180.00      2  0.00032  0.10545  0.10546   1.0000
  3 1 -8  114.529      297.121      297.522    0.00      2  0.00032  0.10545  0.10546   1.0000
  3 -1 5  114.591     1758.212     1762.331   -0.00      2  0.00032  0.10557  0.10558   1.0000
   3 1 5  114.591     1758.212     1762.331   -0.00      2  0.00032  0.10557  0.10558   1.0000
  0 2 -7  114.735      335.371      335.248   -0.00      2  0.00032  0.10585  0.10586   1.0000
   0 2 7  114.735      335.371      335.248  180.00      2  0.00032  0.10585  0.10586   1.0000
 6 -1 -5  115.118      287.591      287.368 -180.00      2  0.00032  0.10660  0.10661   1.0000
  6 1 -5  115.118      287.591      287.368 -180.00      2  0.00032  0.10660  0.10661   1.0000
 4 -3 -6  115.146       35.784       35.723   -0.00      2  0.00032  0.10665  0.10667   1.0000
  4 3 -6  115.146       35.784       35.723  180.00      2  0.00032  0.10665  0.10667   1.0000
 6 -1 -1  115.157     1467.929     1465.057    0.00      2  0.00032  0.10667  0.10669   1.0000
  6 1 -1  115.157     1467.929     1465.057    0.00      2  0.00032  0.10667  0.10669   1.0000
  4 -3 2  115.197       49.968       49.854    0.00      2  0.00032  0.10675  0.10677   1.0000
   4 3 2  115.197       49.968       49.854 -180.00      2  0.00032  0.10675  0.10677   1.0000
  1 0 -8  115.296       11.156       11.123   -0.00      2  0.00032  0.10694  0.10696   1.0000
 2 -5 -1  115.319       29.968       29.867 -180.00      2  0.00032  0.10699  0.10701   1.0000
  2 5 -1  115.319       29.968       29.867 -180.00      2  0.00032  0.10699  0.10701   1.0000
   1 0 7  115.320        0.000        0.000   71.57      2  0.00032  0.10699  0.10701   1.0000
 5 -1 -7  115.912        5.032        5.047   -0.00      2  0.00032  0.10817  0.10819   1.0000
  5 1 -7  115.912        5.032        5.047   -0.00      2  0.00032  0.10817  0.10819   1.0000
  5 -1 2  115.985      538.447      539.242   -0.00      2  0.00032  0.10832  0.10833   1.0000
   5 1 2  115.985      538.447      539.242  180.00      2  0.00032  0.10832  0.10833   1.0000
  0 4 -5  116.217      226.527      226.284 -180.00      2  0.00032  0.10879  0.10880   1.0000
   0 4 5  116.217      226.527      226.284    0.00      2  0.00032  0.10879  0.10880   1.0000
 3 -4 -5  116.396       22.441       22.448  180.00      2  0.00032  0.10915  0.10917   1.0000
  3 4 -5  116.396       22.441       22.448    0.00      2  0.00032  0.10915  0.10917   1.0000
  3 -4 2  116.429      455.355      455.363   -0.00      2  0.00032  0.10922  0.10923   1.0000
   3 4 2  116.429      455.355      455.363   -0.00      2  0.00032  0.10922  0.10923   1.0000
 2 -5 -2  116.895       73.822       73.764    0.00      2  0.00032  0.11017  0.11019   1.0000
  2 5 -2  116.895       73.822       73.764 -180.00      2  0.00032  0.11017  0.11019   1.0000
  2 -5 0  116.901     1317.224     1316.026    0.00      2  0.00032  0.11019  0.11020   1.0000
   2 5 0  116.901     1317.224     1316.026  180.00      2  0.00032  0.11019  0.11020   1.0000
  4 0 -8  117.175       27.142       27.015   -0.00      2  0.00032  0.11075  0.11077   1.0000
   4 0 4  117.253      527.324      525.730   -0.00      2  0.00032  0.11092  0.11093   1.0000
 1 -5 -3  118.429       73.183       73.437    0.00      2  0.00032  0.11341  0.11343   1.0000
  1 5 -3  118.429       73.183       73.437   -0.00      2  0.00032  0.11341  0.11343   1.0000
  1 -5 2  118.437       86.048       86.374    0.00      2  0.00032  0.11343  0.11345   1.0000
   1 5 2  118.437       86.048       86.374  180.00      2  0.00032  0.11343  0.11345   1.0000
 1 -1 -8  118.603       15.123       15.127 -180.00      2  0.00032  0.11379  0.11381   1.0000
  1 1 -8  118.603       15.123       15.127    0.00      2  0.00032  0.11379  0.11381   1.0000
  1 -1 7  118.627     1534.184     1534.307 -180.00      2  0.00032  0.11384  0.11386   1.0000
   1 1 7  118.627     1534.184     1534.307  180.00      2  0.00032  0.11384  0.11386   1.0000
 6 -2 -3  118.694      158.259      158.416  180.00      2  0.00032  0.11399  0.11401   1.0000
  6 2 -3  118.694      158.259      158.416    0.00      2  0.00032  0.11399  0.11401   1.0000
  4 4 -4  119.226      667.134      666.340   -0.00      2  0.00032  0.11516  0.11517   1.0000
 4 -4 -4  119.226      667.134      666.340    0.00      2  0.00032  0.11516  0.11517   1.0000
   4 4 0  119.252      165.633      165.566    0.00      2  0.00032  0.11522  0.11523   1.0000
  4 -4 0  119.252      165.633      165.566   -0.00      2  0.00032  0.11522  0.11523   1.0000
 2 -3 -7  119.683      519.850      519.630   -0.00      2  0.00032  0.11618  0.11619   1.0000
  2 3 -7  119.683      519.850      519.630    0.00      2  0.00032  0.11618  0.11619   1.0000
  2 -3 5  119.723       82.013       81.905    0.00      2  0.00032  0.11627  0.11628   1.0000
   2 3 5  119.723       82.013       81.905   -0.00      2  0.00032  0.11627  0.11628   1.0000
  6 0 -6  119.778       35.486       35.452 -180.00      2  0.00032  0.11639  0.11641   1.0000
   6 0 0  119.838      253.754      253.669 -180.00      2  0.00032  0.11653  0.11654   1.0000
 5 -3 -5  120.153       60.404       60.407   -0.00      2  0.00032  0.11724  0.11726   1.0000
  5 3 -5  120.153       60.404       60.407    0.00      2  0.00032  0.11724  0.11726   1.0000
  5 -3 0  120.195        0.947        0.946 -180.00      2  0.00032  0.11734  0.11735   1.0000
   5 3 0  120.195        0.947        0.946    0.00      2  0.00032  0.11734  0.11735   1.0000
 6 -2 -4  120.313      301.549      300.351    0.00      2  0.00032  0.11761  0.11762   1.0000
  6 2 -4  120.313      301.549      300.351   -0.00      2  0.00032  0.11761  0.11762   1.0000
 6 -2 -2  120.333      104.501      104.109    0.00      2  0.00032  0.11765  0.11767   1.0000
  6 2 -2  120.333      104.501      104.109   -0.00      2  0.00032  0.11765  0.11767   1.0000
 4 -1 -8  120.541       28.034       27.972 -180.00      2  0.00032  0.11813  0.11814   1.0000
  4 1 -8  120.541       28.034       27.972    0.00      2  0.00032  0.11813  0.11814   1.0000
  0 5 -3  120.583      165.106      164.671   -0.00      2  0.00032  0.11823  0.11824   1.0000
   0 5 3  120.583      165.106      164.671    0.00      2  0.00032  0.11823  0.11824   1.0000
  4 -1 4  120.621      429.220      428.189   -0.00      2  0.00032  0.11831  0.11833   1.0000
   4 1 4  120.621      429.220      428.189  180.00      2  0.00032  0.11831  0.11833   1.0000
 2 -5 -3  121.772     1270.961     1273.712 -180.00      2  0.00032  0.12102  0.12104   1.0000
  2 5 -3  121.772     1270.961     1273.712  180.00      2  0.00032  0.12102  0.12104   1.0000
  2 -5 1  121.786      417.880      418.807    0.00      2  0.00032  0.12106  0.12107   1.0000
   2 5 1  121.786      417.880      418.807   -0.00      2  0.00032  0.12106  0.12107   1.0000
 3 -3 -7  121.991      118.377      118.649   -0.00      2  0.00032  0.12155  0.12156   1.0000
  3 3 -7  121.991      118.377      118.649   -0.00      2  0.00032  0.12155  0.12156   1.0000
  3 -3 4  122.047       23.016       23.040   -0.00      2  0.00032  0.12168  0.12170   1.0000
   3 3 4  122.047       23.016       23.040  180.00      2  0.00032  0.12168  0.12170   1.0000
 1 -3 -7  122.944       76.499       76.582    0.00      2  0.00032  0.12388  0.12390   1.0000
  1 3 -7  122.944       76.499       76.582    0.00      2  0.00032  0.12388  0.12390   1.0000
  1 -3 6  122.967      384.905      385.224 -180.00      2  0.00032  0.12394  0.12396   1.0000
   1 3 6  122.967      384.905      385.224   -0.00      2  0.00032  0.12394  0.12396   1.0000
 6 -1 -6  123.235      250.529      250.446  180.00      2  0.00032  0.12461  0.12463   1.0000
  6 1 -6  123.235      250.529      250.446    0.00      2  0.00032  0.12461  0.12463   1.0000
  6 -1 0  123.298        7.389        7.391  180.00      2  0.00032  0.12477  0.12478   1.0000
   6 1 0  123.298        7.389        7.391   -0.00      2  0.00032  0.12477  0.12478   1.0000
 2 -2 -8  124.033      133.819      133.910    0.00      2  0.00032  0.12664  0.12666   1.0000
  2 2 -8  124.033      133.819      133.910   -0.00      2  0.00032  0.12664  0.12666   1.0000
  2 -2 6  124.082      150.720      150.508   -0.00      2  0.00032  0.12677  0.12678   1.0000
   2 2 6  124.082      150.720      150.508   -0.00      2  0.00032  0.12677  0.12678   1.0000
 3 -2 -8  124.714       73.717       73.653   -0.00      2  0.00032  0.12842  0.12844   1.0000
  3 2 -8  124.714       73.717       73.653    0.00      2  0.00032  0.12842  0.12844   1.0000
  3 -2 5  124.782       49.078       49.202   -0.00      2  0.00032  0.12860  0.12862   1.0000
   3 2 5  124.782       49.078       49.202  180.00      2  0.00032  0.12860  0.12862   1.0000
 6 -2 -5  125.367       98.665       99.122    0.00      2  0.00032  0.13016  0.13018   1.0000
  6 2 -5  125.367       98.665       99.122  180.00      2  0.00032  0.13016  0.13018   1.0000
 6 -2 -1  125.410      161.771      162.270 -180.00      2  0.00032  0.13028  0.13030   1.0000
  6 2 -1  125.410      161.771      162.270    0.00      2  0.00032  0.13028  0.13030   1.0000
 2 -4 -6  125.670       71.954       71.979    0.00      2  0.00032  0.13099  0.13100   1.0000
  2 4 -6  125.670       71.954       71.979   -0.00      2  0.00032  0.13099  0.13100   1.0000
  2 -4 4  125.706        0.048        0.048  180.00      2  0.00032  0.13108  0.13110   1.0000
   2 4 4  125.706        0.048        0.048  180.00      2  0.00032  0.13108  0.13110   1.0000
   0 0 8  125.724     1712.371     1710.755  180.00      2  0.00032  0.13113  0.13115   1.0000
 5 -2 -7  126.251       17.188       17.210    0.00      2  0.00032  0.13259  0.13260   1.0000
  5 2 -7  126.251       17.188       17.210 -180.00      2  0.00032  0.13259  0.13260   1.0000
  5 -2 2  126.332      127.419      127.506 -180.00      2  0.00032  0.13281  0.13283   1.0000
   5 2 2  126.332      127.419      127.506 -180.00      2  0.00032  0.13281  0.13283   1.0000
 1 -4 -6  127.371      152.752      152.789  180.00      2  0.00032  0.13576  0.13578   1.0000
  1 4 -6  127.371      152.752      152.789 -180.00      2  0.00032  0.13576  0.13578   1.0000
  1 -4 5  127.391      944.000      944.110  180.00      2  0.00032  0.13582  0.13584   1.0000
   1 4 5  127.391      944.000      944.110    0.00      2  0.00032  0.13582  0.13584   1.0000
 3 -5 -2  127.647      802.602      802.138 -180.00      2  0.00032  0.13657  0.13659   1.0000
  3 5 -2  127.647      802.602      802.138   -0.00      2  0.00032  0.13657  0.13659   1.0000
 3 -5 -1  127.653      189.689      189.578    0.00      2  0.00032  0.13659  0.13660   1.0000
  3 5 -1  127.653      189.689      189.578    0.00      2  0.00032  0.13659  0.13660   1.0000
  4 4 -5  127.726       18.200       18.190   -0.00      2  0.00032  0.13680  0.13682   1.0000
 4 -4 -5  127.726       18.200       18.190 -180.00      2  0.00032  0.13680  0.13682   1.0000
   4 4 1  127.770       30.641       30.589   -0.00      2  0.00032  0.13693  0.13695   1.0000
  4 -4 1  127.770       30.641       30.589  180.00      2  0.00032  0.13693  0.13695   1.0000
 1 -5 -4  128.648       19.019       18.991 -180.00      2  0.00032  0.13955  0.13957   1.0000
  1 5 -4  128.648       19.019       18.991   -0.00      2  0.00032  0.13955  0.13957   1.0000
  1 -5 3  128.661       91.466       91.336 -180.00      2  0.00032  0.13959  0.13960   1.0000
   1 5 3  128.661       91.466       91.336  180.00      2  0.00032  0.13959  0.13960   1.0000
  5 0 -8  129.265     2136.255     2135.881 -180.00      2  0.00032  0.14144  0.14146   1.0000
 1 -2 -8  129.276      357.010      356.962    0.00      2  0.00032  0.14148  0.14149   1.0000
  1 2 -8  129.276      357.010      356.962    0.00      2  0.00032  0.14148  0.14149   1.0000
  1 -2 7  129.304       26.747       26.747 -180.00      2  0.00032  0.14157  0.14158   1.0000
   1 2 7  129.304       26.747       26.747   -0.00      2  0.00032  0.14157  0.14158   1.0000
   5 0 3  129.368        0.000        0.000   96.34      2  0.00032  0.14176  0.14178   1.0000
  0 1 -8  129.444       41.251       41.283   -0.00      2  0.00032  0.14200  0.14202   1.0000
   0 1 8  129.444       41.251       41.283 -180.00      2  0.00032  0.14200  0.14202   1.0000
 3 -4 -6  129.977        4.963        4.984    0.00      2  0.00032  0.14368  0.14370   1.0000
  3 4 -6  129.977        4.963        4.984   -0.00      2  0.00032  0.14368  0.14370   1.0000
  3 -4 3  130.028      103.114      103.512    0.00      2  0.00032  0.14384  0.14386   1.0000
   3 4 3  130.028      103.114      103.512 -180.00      2  0.00032  0.14384  0.14386   1.0000
 4 -3 -7  130.358      170.449      170.302    0.00      2  0.00032  0.14491  0.14492   1.0000
  4 3 -7  130.358      170.449      170.302   -0.00      2  0.00032  0.14491  0.14492   1.0000
  4 -3 3  130.434      111.027      111.045  180.00      2  0.00032  0.14515  0.14517   1.0000
   4 3 3  130.434      111.027      111.045  180.00      2  0.00032  0.14515  0.14517   1.0000
 2 -5 -4  130.559       56.177       56.174 -180.00      2  0.00032  0.14556  0.14557   1.0000
  2 5 -4  130.559       56.177       56.174   -0.00      2  0.00032  0.14556  0.14557   1.0000
  2 -5 2  130.582      718.574      718.599   -0.00      2  0.00032  0.14563  0.14565   1.0000
   2 5 2  130.582      718.574      718.599  180.00      2  0.00032  0.14563  0.14565   1.0000
 5 -3 -6  130.592      301.906      301.930    0.00      2  0.00032  0.14567  0.14568   1.0000
  5 3 -6  130.592      301.906      301.930  180.00      2  0.00032  0.14567  0.14568   1.0000
  5 -3 1  130.659      174.831      174.910 -180.00      2  0.00032  0.14589  0.14590   1.0000
   5 3 1  130.659      174.831      174.910 -180.00      2  0.00032  0.14589  0.14590   1.0000
 3 -5 -3  131.316        9.251        9.247    0.00      2  0.00032  0.14806  0.14808   1.0000
  3 5 -3  131.316        9.251        9.247    0.00      2  0.00032  0.14806  0.14808   1.0000
  3 -5 0  131.334      190.973      190.896    0.00      2  0.00032  0.14812  0.14814   1.0000
   3 5 0  131.334      190.973      190.896 -180.00      2  0.00032  0.14812  0.14814   1.0000
 4 -2 -8  131.489      251.684      251.638    0.00      2  0.00032  0.14864  0.14866   1.0000
  4 2 -8  131.489      251.684      251.638    0.00      2  0.00032  0.14864  0.14866   1.0000
  4 -2 4  131.582        0.060        0.060  180.00      2  0.00032  0.14896  0.14897   1.0000
   4 2 4  131.582        0.060        0.060 -180.00      2  0.00032  0.14896  0.14897   1.0000
  6 0 -7  132.046        0.000        0.000 -125.42      2  0.00032  0.15055  0.15056   1.0000
   6 0 1  132.139        0.000        0.000  179.33      2  0.00032  0.15087  0.15088   1.0000
   0 3 7  132.504     1127.689     1126.148  180.00      2  0.00032  0.15214  0.15216   1.0000
  0 3 -7  132.504     1127.689     1126.148 -180.00      2  0.00032  0.15214  0.15216   1.0000
  0 5 -4  133.002      351.120      351.307 -180.00      2  0.00032  0.15391  0.15393   1.0000
   0 5 4  133.002      351.120      351.307   -0.00      2  0.00032  0.15391  0.15393   1.0000
 5 -1 -8  133.184      610.639      610.977    0.00      2  0.00032  0.15457  0.15459   1.0000
  5 1 -8  133.184      610.639      610.977 -180.00      2  0.00032  0.15457  0.15459   1.0000
  5 -1 3  133.294      674.129      674.482  180.00      2  0.00032  0.15497  0.15498   1.0000
   5 1 3  133.294      674.129      674.482 -180.00      2  0.00032  0.15497  0.15498   1.0000
 6 -2 -6  134.620      106.131      106.224  180.00      2  0.00032  0.15992  0.15993   1.0000
  6 2 -6  134.620      106.131      106.224  180.00      2  0.00032  0.15992  0.15993   1.0000
  6 -2 0  134.693      890.224      890.769    0.00      2  0.00032  0.16020  0.16022   1.0000
   6 2 0  134.693      890.224      890.769   -0.00      2  0.00032  0.16020  0.16022   1.0000
  3 0 -9  135.243        0.000        0.000  -74.03      2  0.00032  0.16234  0.16236   1.0000
   3 0 6  135.336     1140.977     1143.250   -0.00      2  0.00032  0.16271  0.16272   1.0000
   0 4 6  135.562       38.155       38.186    0.00      2  0.00032  0.16361  0.16362   1.0000
  0 4 -6  135.562       38.155       38.186    0.00      2  0.00032  0.16361  0.16362   1.0000
  5 4 -3  135.575       61.489       61.548  180.00      2  0.00032  0.16366  0.16368   1.0000
 5 -4 -3  135.575       61.489       61.548    0.00      2  0.00032  0.16366  0.16368   1.0000
  5 4 -2  135.586       45.535       45.587   -0.00      2  0.00032  0.16370  0.16372   1.0000
 5 -4 -2  135.586       45.535       45.587    0.00      2  0.00032  0.16370  0.16372   1.0000
 6 -1 -7  136.151     1289.882     1290.460 -180.00      2  0.00032  0.16599  0.16600   1.0000
  6 1 -7  136.151     1289.882     1290.460 -180.00      2  0.00032  0.16599  0.16600   1.0000
  6 -1 1  136.251      359.654      359.818   -0.00      2  0.00032  0.16640  0.16642   1.0000
   6 1 1  136.251      359.654      359.818   -0.00      2  0.00032  0.16640  0.16642   1.0000
  2 0 -9  136.475        0.000        0.000  140.19      2  0.00032  0.16733  0.16734   1.0000
   2 0 7  136.542        0.000        0.000  150.49      2  0.00032  0.16761  0.16762   1.0000
  6 3 -3  137.505      583.939      584.138   -0.00      2  0.00032  0.17171  0.17173   1.0000
 6 -3 -3  137.505      583.939      584.138    0.00      2  0.00032  0.17171  0.17173   1.0000
  7 0 -4  137.786      253.296      253.846  180.00      2  0.00032  0.17294  0.17296   1.0000
  7 0 -3  137.801        0.000        0.000 -126.47      2  0.00032  0.17301  0.17302   1.0000
 3 -5 -4  139.388      244.826      244.916  180.00      2  0.00032  0.18027  0.18029   1.0000
  3 5 -4  139.388      244.826      244.916    0.00      2  0.00032  0.18027  0.18029   1.0000
  3 -5 1  139.421      442.181      442.330 -180.00      2  0.00032  0.18043  0.18045   1.0000
   3 5 1  139.421      442.181      442.330  180.00      2  0.00032  0.18043  0.18045   1.0000
 3 -1 -9  139.601      400.421      400.762    0.00      2  0.00032  0.18129  0.18130   1.0000
  3 1 -9  139.601      400.421      400.762    0.00      2  0.00032  0.18129  0.18130   1.0000
  6 3 -4  139.635      147.266      147.447  180.00      2  0.00032  0.18146  0.18147   1.0000
 6 -3 -4  139.635      147.266      147.447   -0.00      2  0.00032  0.18146  0.18147   1.0000
 6 -3 -2  139.662      573.240      574.078   -0.00      2  0.00032  0.18158  0.18160   1.0000
  6 3 -2  139.662      573.240      574.078  180.00      2  0.00032  0.18158  0.18160   1.0000
  3 -1 6  139.701       38.887       38.951 -180.00      2  0.00032  0.18177  0.18179   1.0000
   3 1 6  139.701       38.887       38.951    0.00      2  0.00032  0.18177  0.18179   1.0000
  5 4 -4  139.777       35.178       35.218   -0.00      2  0.00032  0.18214  0.18216   1.0000
 5 -4 -4  139.777       35.178       35.218    0.00      2  0.00032  0.18214  0.18216   1.0000
  5 4 -1  139.811      448.433      448.711   -0.00      2  0.00032  0.18231  0.18232   1.0000
 5 -4 -1  139.811      448.433      448.711 -180.00      2  0.00032  0.18231  0.18232   1.0000
