 BEGIN header
 Number of ions         4
 Number of branches     12
 Number of wavevectors  1
 Frequencies in         cm-1
 IR intensities in      (D/A)**2/amu
 Raman activities in    A**4 amu**(-1)
 Unit cell vectors (A)
    2.168528   -1.252000    0.000000
    0.000000    2.504000    0.000000
    0.000000    0.000000    6.660000
 Fractional Co-ordinates
     1     0.000000    0.000000    0.250000   B        10.811000
     2     0.333333    0.666667    0.750000   B        10.811000
     3     0.000000    0.000000    0.750000   N        14.006740
     4     0.333333    0.666667    0.250000   N        14.006740
 END header
     q-pt=    1    0.000000  0.000000  0.000000      1.0000000000
       1      -0.044885              0.0000000               0.0000000          
       2      -0.044885              0.0000000               0.0000000          
       3      -0.028388              0.0000000               0.0000000          
       4      46.687522              0.0000000               0.0285806          
       5      46.687522              0.0000000               0.0145375          
       6     101.656089              0.0000000               0.0000002          
       7     758.643623              4.3313488               0.0000000          
       8     812.328102              0.0000000               0.0000004          
       9    1359.777603              0.0000000             387.8082696          
      10    1359.777603              0.0000000             378.2894521          
      11    1360.114475             54.9107367               0.0000000          
      12    1360.114475             54.9107367               0.0000000          
                        Phonon Eigenvectors
Mode Ion                X                                   Y                                   Z
   1   1 -0.302472052180  0.000000000000      0.355399637376  0.000000000000      0.000000011351  0.000000000000
   1   2 -0.302472052180  0.000000000000      0.355399637376  0.000000000000      0.000000011351  0.000000000000
   1   3 -0.344300711978  0.000000000000      0.404547617883  0.000000000000      0.000000012919  0.000000000000
   1   4 -0.344300711978  0.000000000000      0.404547617883  0.000000000000      0.000000012919  0.000000000000
   2   1 -0.355399637376  0.000000000000     -0.302472052180  0.000000000000     -0.000000001733  0.000000000000
   2   2 -0.355399637376  0.000000000000     -0.302472052180  0.000000000000     -0.000000001733  0.000000000000
   2   3 -0.404547617883  0.000000000000     -0.344300711978  0.000000000000     -0.000000001972  0.000000000000
   2   4 -0.404547617883  0.000000000000     -0.344300711978  0.000000000000     -0.000000001972  0.000000000000
   3   1  0.000000006037  0.000000000000     -0.000000009767  0.000000000000      0.466703889279  0.000000000000
   3   2  0.000000006037  0.000000000000     -0.000000009767  0.000000000000      0.466703889279  0.000000000000
   3   3  0.000000006872  0.000000000000     -0.000000011117  0.000000000000      0.531213214945  0.000000000000
   3   4  0.000000006872  0.000000000000     -0.000000011117  0.000000000000      0.531213214945  0.000000000000
   4   1 -0.463450059645  0.000000000000      0.057174354777  0.000000000000     -0.000000000000  0.000000000000
   4   2  0.463450059645  0.000000000000     -0.057174354777  0.000000000000     -0.000000000000  0.000000000000
   4   3  0.526989977032  0.000000000000     -0.065013071600  0.000000000000     -0.000000000000  0.000000000000
   4   4 -0.526989977032  0.000000000000      0.065013071600  0.000000000000     -0.000000000000  0.000000000000
   5   1  0.057174354777  0.000000000000      0.463450059645  0.000000000000     -0.000000000000  0.000000000000
   5   2 -0.057174354777  0.000000000000     -0.463450059645  0.000000000000     -0.000000000000  0.000000000000
   5   3 -0.065013071600  0.000000000000     -0.526989977032  0.000000000000     -0.000000000000  0.000000000000
   5   4  0.065013071600  0.000000000000      0.526989977032  0.000000000000     -0.000000000000  0.000000000000
   6   1 -0.000000000000  0.000000000000     -0.000000000000  0.000000000000      0.470217175648  0.000000000000
   6   2  0.000000000000  0.000000000000      0.000000000000  0.000000000000     -0.470217175648  0.000000000000
   6   3  0.000000000000  0.000000000000      0.000000000000  0.000000000000     -0.528105867915  0.000000000000
   6   4 -0.000000000000  0.000000000000     -0.000000000000  0.000000000000      0.528105867915  0.000000000000
   7   1  0.000000000000  0.000000000000      0.000000000000  0.000000000000     -0.531213214945  0.000000000000
   7   2 -0.000000000000  0.000000000000     -0.000000000000  0.000000000000     -0.531213214945  0.000000000000
   7   3 -0.000000000000  0.000000000000     -0.000000000000  0.000000000000      0.466703889279  0.000000000000
   7   4  0.000000000000  0.000000000000      0.000000000000  0.000000000000      0.466703889279  0.000000000000
   8   1 -0.000000000000  0.000000000000      0.000000000000  0.000000000000     -0.528105867915  0.000000000000
   8   2  0.000000000000  0.000000000000     -0.000000000000  0.000000000000      0.528105867915  0.000000000000
   8   3  0.000000000000  0.000000000000     -0.000000000000  0.000000000000     -0.470217175648  0.000000000000
   8   4 -0.000000000000  0.000000000000      0.000000000000  0.000000000000      0.470217175648  0.000000000000
   9   1 -0.123525777316  0.000000000000      0.516416999826  0.000000000000      0.000000000000  0.000000000000
   9   2  0.123525777316  0.000000000000     -0.516416999827  0.000000000000     -0.000000000000  0.000000000000
   9   3 -0.108632101861  0.000000000000      0.454151881064  0.000000000000      0.000000000000  0.000000000000
   9   4  0.108632101861  0.000000000000     -0.454151881064  0.000000000000     -0.000000000000  0.000000000000
  10   1  0.516416999826  0.000000000000      0.123525777316  0.000000000000      0.000000000000  0.000000000000
  10   2 -0.516416999827  0.000000000000     -0.123525777316  0.000000000000      0.000000000000  0.000000000000
  10   3  0.454151881064  0.000000000000      0.108632101861  0.000000000000      0.000000000000  0.000000000000
  10   4 -0.454151881064  0.000000000000     -0.108632101861  0.000000000000     -0.000000000000  0.000000000000
  11   1 -0.113371938408  0.000000000000      0.518988014298  0.000000000000      0.000000000000  0.000000000000
  11   2 -0.113371938408  0.000000000000      0.518988014298  0.000000000000     -0.000000000000  0.000000000000
  11   3  0.099598524420  0.000000000000     -0.455936814186  0.000000000000      0.000000000000  0.000000000000
  11   4  0.099598524420  0.000000000000     -0.455936814186  0.000000000000     -0.000000000000  0.000000000000
  12   1  0.518988014298  0.000000000000      0.113371938408  0.000000000000      0.000000000000  0.000000000000
  12   2  0.518988014298  0.000000000000      0.113371938408  0.000000000000      0.000000000000  0.000000000000
  12   3 -0.455936814186  0.000000000000     -0.099598524420  0.000000000000     -0.000000000000  0.000000000000
  12   4 -0.455936814186  0.000000000000     -0.099598524420  0.000000000000     -0.000000000000  0.000000000000
     q-pt=    1    0.000000  0.000000  0.000000      1.0000000000    0.000000  0.000000  1.000000
       1      -0.044885              0.0000000                                  
       2      -0.044885              0.0000000                                  
       3      -0.028265              0.0000000                                  
       4      46.687522              0.0000000                                  
       5      46.687522              0.0000000                                  
       6     101.656089              0.0000000                                  
       7     812.328102              0.0000000                                  
       8     817.750226              4.3313488                                  
       9    1359.777603              0.0000000                                  
      10    1359.777603              0.0000000                                  
      11    1360.114475             54.9107367                                  
      12    1360.114475             54.9107367                                  
                        Phonon Eigenvectors
Mode Ion                X                                   Y                                   Z
   1   1  0.287633636481  0.000000000000      0.367512089273  0.000000000000      0.000000005000  0.000000000000
   1   2  0.287633636481  0.000000000000      0.367512089273  0.000000000000      0.000000005000  0.000000000000
   1   3  0.327410301598  0.000000000000      0.418335092731  0.000000000000      0.000000005691  0.000000000000
   1   4  0.327410301598  0.000000000000      0.418335092731  0.000000000000      0.000000005691  0.000000000000
   2   1 -0.367512089273  0.000000000000      0.287633636481  0.000000000000      0.000000001351  0.000000000000
   2   2 -0.367512089273  0.000000000000      0.287633636481  0.000000000000      0.000000001351  0.000000000000
   2   3 -0.418335092731  0.000000000000      0.327410301598  0.000000000000      0.000000001537  0.000000000000
   2   4 -0.418335092731  0.000000000000      0.327410301598  0.000000000000      0.000000001537  0.000000000000
   3   1  0.000000002018  0.000000000000      0.000000004770  0.000000000000     -0.466703200595  0.000000000000
   3   2  0.000000002018  0.000000000000      0.000000004770  0.000000000000     -0.466703200595  0.000000000000
   3   3  0.000000002297  0.000000000000      0.000000005430  0.000000000000     -0.531213819996  0.000000000000
   3   4  0.000000002297  0.000000000000      0.000000005430  0.000000000000     -0.531213819996  0.000000000000
   4   1 -0.386903647496  0.000000000000      0.261458280004  0.000000000000      0.000000000000  0.000000000000
   4   2  0.386903647496  0.000000000000     -0.261458280004  0.000000000000     -0.000000000000  0.000000000000
   4   3  0.439948900782  0.000000000000     -0.297304725950  0.000000000000     -0.000000000000  0.000000000000
   4   4 -0.439948900782  0.000000000000      0.297304725950  0.000000000000      0.000000000000  0.000000000000
   5   1  0.261458280004  0.000000000000      0.386903647496  0.000000000000     -0.000000000000  0.000000000000
   5   2 -0.261458280004  0.000000000000     -0.386903647496  0.000000000000     -0.000000000000  0.000000000000
   5   3 -0.297304725950  0.000000000000     -0.439948900782  0.000000000000     -0.000000000000  0.000000000000
   5   4  0.297304725950  0.000000000000      0.439948900782  0.000000000000     -0.000000000000  0.000000000000
   6   1  0.000000000000  0.000000000000     -0.000000000000  0.000000000000      0.470217175648  0.000000000000
   6   2 -0.000000000000  0.000000000000      0.000000000000  0.000000000000     -0.470217175648  0.000000000000
   6   3 -0.000000000000  0.000000000000      0.000000000000  0.000000000000     -0.528105867915  0.000000000000
   6   4  0.000000000000  0.000000000000     -0.000000000000  0.000000000000      0.528105867915  0.000000000000
   7   1 -0.000000000000  0.000000000000      0.000000000000  0.000000000000     -0.528105867915  0.000000000000
   7   2  0.000000000000  0.000000000000     -0.000000000000  0.000000000000      0.528105867915  0.000000000000
   7   3  0.000000000000  0.000000000000     -0.000000000000  0.000000000000     -0.470217175648  0.000000000000
   7   4  0.000000000000  0.000000000000      0.000000000000  0.000000000000      0.470217175648  0.000000000000
   8   1  0.000000000000  0.000000000000      0.000000000000  0.000000000000     -0.531213819996  0.000000000000
   8   2 -0.000000000000  0.000000000000     -0.000000000000  0.000000000000     -0.531213819996  0.000000000000
   8   3 -0.000000000000  0.000000000000     -0.000000000000  0.000000000000      0.466703200595  0.000000000000
   8   4 -0.000000000000  0.000000000000      0.000000000000  0.000000000000      0.466703200595  0.000000000000
   9   1 -0.141555288656  0.000000000000      0.511768732558  0.000000000000      0.000000000000  0.000000000000
   9   2  0.141555288657  0.000000000000     -0.511768732559  0.000000000000     -0.000000000000  0.000000000000
   9   3 -0.124487769844  0.000000000000      0.450064061871  0.000000000000     -0.000000000000  0.000000000000
   9   4  0.124487769844  0.000000000000     -0.450064061871  0.000000000000     -0.000000000000  0.000000000000
  10   1 -0.511768732558  0.000000000000     -0.141555288656  0.000000000000     -0.000000000000  0.000000000000
  10   2  0.511768732559  0.000000000000      0.141555288657  0.000000000000     -0.000000000000  0.000000000000
  10   3 -0.450064061872  0.000000000000     -0.124487769844  0.000000000000     -0.000000000000  0.000000000000
  10   4  0.450064061871  0.000000000000      0.124487769844  0.000000000000      0.000000000000  0.000000000000
  11   1 -0.480102670990  0.000000000000      0.227383334287  0.000000000000      0.000000000000  0.000000000000
  11   2 -0.480102670989  0.000000000000      0.227383334287  0.000000000000     -0.000000000000  0.000000000000
  11   3  0.421775602254  0.000000000000     -0.199758819429  0.000000000000     -0.000000000000  0.000000000000
  11   4  0.421775602255  0.000000000000     -0.199758819429  0.000000000000     -0.000000000000  0.000000000000
  12   1  0.227383334287  0.000000000000      0.480102670990  0.000000000000      0.000000000000  0.000000000000
  12   2  0.227383334287  0.000000000000      0.480102670990  0.000000000000      0.000000000000  0.000000000000
  12   3 -0.199758819429  0.000000000000     -0.421775602254  0.000000000000      0.000000000000  0.000000000000
  12   4 -0.199758819429  0.000000000000     -0.421775602255  0.000000000000     -0.000000000000  0.000000000000
